C_1_Force[kN];C_1_Deplacement[mm]
0.841907322;0.001497246
0.990369737;0.005728594
1.109346986;0.010025039
1.198972225;0.014191289
1.287985802;0.018552832
1.368943572;0.022865552
1.436873555;0.027031802
1.500204086;0.031279422
1.54263711;0.035494499
1.580683231;0.039628197
1.611843348;0.043615431
1.643109798;0.047814228
1.665815234;0.051817734
1.687377334;0.055886339
1.713406086;0.060052589
1.732362747;0.064104915
1.755014896;0.068303719
1.779289007;0.072518788
1.802738786;0.076815233
1.824141383;0.080932662
1.846421361;0.085196555
1.867584705;0.089493006
1.890236974;0.09364298
1.916637897;0.097906873
1.937083364;0.102073126
1.961942315;0.106271923
1.974597812;0.110242881
1.992118716;0.11447423
2.005678177;0.118363813
2.024688005;0.12256261
2.036492586;0.12654984
2.048775911;0.130667269
2.070258141;0.134931162
2.084774733;0.139113694
2.107533455;0.143426418
2.12593174;0.147592664
2.143984318;0.151970476
2.160335302;0.156299472
2.181206226;0.160498276
2.2053473;0.164827272
2.218561172;0.169026062
2.239325523;0.173192307
2.257591009;0.17737484
2.269741297;0.181655005
2.282051086;0.185593411
2.290878057;0.189515546
2.307388544;0.193649247
2.316534519;0.197636485
2.328897715;0.20183529
2.342988729;0.205968991
2.358462572;0.210249156
2.374122381;0.214334026
2.391138077;0.218614206
2.406186342;0.222878098
2.422962666;0.227076903
2.442690372;0.231422171
2.458562851;0.235604689
2.474993706;0.239754662
2.487330198;0.2437419
2.501368046;0.248054624
2.509317636;0.251895368
2.521627426;0.255980253
2.531065941;0.26008141
2.542206049;0.264231384
2.552601576;0.268332541
2.566293955;0.272547603
2.576795816;0.27681151
2.594157219;0.280945212
2.611518621;0.285257936
2.62709856;0.289570659
2.639089346;0.293720633
2.657939672;0.298000783
2.672110558;0.302199602
2.686494112;0.306235641
2.695427418;0.310304254
2.70768404;0.31455189
2.717095852;0.318506569
2.721270084;0.322575152
2.736052513;0.326725125
2.743523598;0.33072865
2.756444931;0.334943712
2.768542051;0.339175075
2.782500267;0.343471497
2.792390585;0.347556382
2.810655832;0.351852834
2.822726488;0.356133014
2.837562084;0.360315531
2.852902889;0.364595711
2.863750458;0.368827045
2.876459122;0.372977018
2.888529539;0.376947969
2.901530743;0.381195605
2.905864477;0.384971261
2.91280365;0.389121234
2.921550751;0.393320054
2.932584524;0.397437453
2.941065788;0.401522338
2.955901384;0.405753702
2.967945337;0.410066426
2.977676153;0.414232671
2.994053841;0.418480277
3.012186289;0.422809273
3.024469376;0.426975518
3.040288687;0.431206882
3.055443525;0.435356855
3.063073874;0.439425468
3.073017597;0.443445235
3.086311102;0.447757959
3.091495514;0.451761454
3.098355055;0.455878884
3.107182026;0.459947497
3.113749027;0.464032382
3.128105879;0.468263716
3.139804363;0.472495049
3.150226355;0.476824045
3.160648584;0.48090893
3.175431013;0.485254198
3.185321331;0.489501834
3.200156927;0.493716896
3.215923309;0.498078436
3.22655797;0.502293527
3.239665508;0.506410956
3.251629591;0.510414422
3.263540745;0.514645815
3.268805027;0.518470287
3.274467945;0.5225389
3.284065962;0.526640058
3.293451071;0.530822575
3.301427364;0.534972548
3.312859774;0.539138794
3.326206446;0.543418944
3.339951992;0.547568917
3.353910208;0.551865399
3.366193533;0.556178093
3.377971649;0.560328066
3.396316767;0.564591944
3.402671099;0.568774521
3.41841054;0.572826803
3.425642252;0.576879144
3.434176683;0.58112675
3.438510418;0.585000098
3.448374271;0.589068711
3.456350327;0.593234956
3.464831591;0.597303569
3.472861052;0.601518631
3.485808849;0.605733693
3.499634266;0.610062659
3.50606823;0.614131272
3.524626017;0.618411481
3.534808874;0.622675359
3.548607588;0.626857877
3.568308592;0.631121755
3.577959776;0.635304272
3.586547375;0.639307797
3.595188141;0.643262506
3.60494566;0.647607744
3.607046127;0.65130204
3.614570141;0.655403197
3.626321793;0.659699619
3.633234501;0.663865924
3.645597458;0.668048441
3.661948442;0.672328591
3.671360254;0.676641285
3.680851936;0.680742443
3.69552803;0.685022652
3.712756395;0.689416707
3.72408247;0.693615556
3.739077568;0.697814345
3.749287128;0.701996863
3.761490583;0.706130564
3.770769596;0.710264266
3.778213978;0.714463055
3.786003828;0.71838516
3.794299126;0.722584009
3.806156874;0.726766527
3.812564373;0.730818868
3.823544979;0.735033929
3.83614707;0.739216447
3.844495535;0.743512869
3.856140614;0.747597754
3.874060392;0.751894176
3.883392334;0.756125569
3.894479275;0.760291815
3.917051792;0.764604509
3.927154779;0.768803298
3.938879728;0.772920728
3.946589947;0.776875436
3.959989786;0.781171858
3.961904287;0.78499639
3.967088699;0.789064944
3.976580143;0.793166101
3.984503269;0.797348619
3.996945858;0.801531196
4.007182121;0.805713713
4.023187637;0.809993863
4.032493114;0.814160109
4.049588203;0.818472803
4.06450367;0.822769284
4.075563908;0.82693553
4.092367172;0.831150591
4.10560751;0.835349381
4.115311623;0.839320362
4.120868683;0.843323886
4.132779598;0.847604036
4.136608124;0.851542413
4.144956589;0.855594754
4.154846668;0.859744728
4.164311886;0.863845885
4.174308777;0.868060946
4.188107491;0.872276068
4.197678566;0.876588762
4.210413933;0.880689919
4.229423523;0.884986341
4.244205952;0.889282823
4.254920483;0.893449068
4.268187523;0.89774549
4.282464981;0.901895463
4.29272747;0.905980349
4.299985886;0.909853637
4.313837528;0.914264023
4.310248375;0.91803968
4.326041222;0.922271073
4.333910942;0.926388443
4.340637684;0.930603564
4.351006508;0.934737265
4.367516994;0.938968599
4.379508018;0.943281293
4.395353794;0.94746381
4.407876492;0.95174402
4.422818184;0.956056714
4.439647675;0.960255504
4.454829216;0.964519441
4.466208458;0.968653142
4.477720737;0.972624063
4.487504482;0.97664386
4.502632618;0.98092401
4.503005028;0.984862447
4.511406422;0.988800824
4.526348591;0.993048489
4.535121918;0.997165918
4.548017025;1.001397252
4.562560081;1.005596042
4.577209473;1.009925008
4.587365627;1.014042497
4.606163025;1.018338919
4.619961739;1.022602797
4.635594845;1.02683413
4.653514385;1.031146884
4.667366505;1.035329342
4.679756165;1.039463043
4.689912319;1.043434024
4.704003334;1.047665358
4.705199718;1.051538706
4.717695713;1.055656195
4.727851868;1.059757352
4.738407135;1.063907266
4.750025749;1.068089843
4.764568806;1.072304845
4.776931763;1.076568723
4.796393394;1.080718756
4.818354607;1.085064054
4.830504894;1.089360476
4.846616745;1.093477845
4.865546703;1.097692966
4.878574371;1.101891756
4.888358593;1.105862737
4.897796631;1.10984993
4.912020683;1.114113808
4.916594028;1.11810112
4.926776886;1.122185946
4.938927174;1.126287103
4.952273846;1.130437016
4.966524601;1.134668469
4.978462219;1.138883471
4.995105743;1.143212438
5.011057854;1.147313595
5.029137135;1.151610136
5.045382023;1.155874014
5.060350418;1.160056472
5.076568604;1.164336681
5.08696413;1.168502927
5.102065563;1.172538996
5.109961987;1.176477432
5.122962952;1.180643678
5.126073837;1.184500694
5.139420509;1.18866694
5.151756763;1.192849398
5.163721085;1.197031975
5.181427956;1.201263309
5.194109917;1.205445886
5.20899868;1.209709764
5.225615978;1.213908553
5.243854523;1.218221307
5.262757778;1.222501397
5.274536133;1.22665143
5.292136669;1.230898976
5.304153919;1.235016465
5.313220501;1.238971114
5.322259903;1.242942095
5.342731953;1.247531533
5.344433784;1.251356006
5.355892658;1.255522251
5.371286392;1.259688497
5.378146172;1.26383841
5.393539906;1.2680372
5.408482075;1.272268653
5.423317432;1.276613832
5.434191704;1.280747533
5.454105377;1.285043955
5.467797756;1.289324164
5.486302376;1.293522954
5.506242752;1.297819376
5.516319275;1.301985621
5.533042431;1.306054235
5.542241573;1.310025215
5.55388689;1.314256549
5.558778763;1.318048477
5.57151413;1.32219851
5.58084631;1.32631588
5.591667175;1.330465913
5.604428768;1.334680915
5.61995554;1.338879824
5.636625767;1.343176246
5.653162956;1.347293615
5.673980713;1.351638913
5.689826488;1.355967879
5.70179081;1.360117912
5.721119881;1.364251614
5.735396862;1.368466616
5.74499464;1.372453928
5.75148201;1.376457334
5.762143612;1.380656242
5.773070812;1.38459456
5.780222893;1.388728261
5.793755531;1.39284575
5.806756496;1.39696312
5.822363377;1.401226997
5.834061623;1.405425906
5.85123682;1.409738541
5.866312027;1.413872242
5.884071827;1.41813612
5.901433468;1.422432661
5.913849354;1.426550031
5.929961205;1.430700064
5.945036411;1.434882522
5.953411102;1.438951135
5.96016407;1.44287324
5.975372314;1.447137117
5.982284546;1.451091886
5.994700909;1.455339432
6.002092361;1.459375501
6.01147747;1.46357429
6.03194952;1.467838168
6.043674469;1.472053289
6.062737465;1.476366043
6.075339794;1.480515957
6.093976974;1.484910131
6.108094692;1.489206553
6.126333714;1.493421555
6.141142845;1.497620463
6.156164169;1.501835465
6.162997246;1.505887866
6.173578739;1.50995636
6.187803268;1.514236569
6.191153049;1.51820755
6.199953556;1.522178531
6.211731434;1.526360989
6.222552299;1.530462146
6.234755993;1.534644723
6.251293182;1.538827181
6.264586449;1.543139935
6.275965691;1.547257423
6.29359293;1.551537514
6.313426971;1.555801392
6.325896263;1.559967637
6.348495483;1.564264178
6.355487823;1.568414092
6.366867065;1.572482705
6.377661705;1.576388597
6.389811993;1.580668688
6.39050293;1.584476948
6.403398037;1.588659525
6.413447857;1.592858315
6.423976421;1.59702456
6.439955235;1.601190805
6.455508709;1.605438352
6.473268986;1.609767437
6.481750011;1.613901138
6.509347439;1.61819756
6.526070595;1.622510314
6.537370205;1.626676559
6.556300163;1.630810261
6.568424225;1.63500905
6.576453209;1.638947368
6.583365917;1.642918348
6.60043478;1.647182226
6.600488186;1.65110445
6.615350246;1.655286908
6.626596451;1.659420609
6.640475273;1.663521767
6.661133289;1.667785645
6.673762321;1.67203331
6.689342022;1.676378608
6.705241203;1.680463433
6.727282047;1.684759855
6.745307922;1.689088941
6.754932404;1.693238854
6.77596283;1.697421432
6.787129402;1.701636434
6.799891472;1.705688834
6.805607319;1.709610939
6.821214199;1.713793397
6.828472614;1.717699289
6.842617035;1.721914411
6.853809834;1.726048112
6.864524364;1.730279446
6.882790089;1.734461904
6.901799679;1.738677025
6.915199757;1.743005991
6.93168354;1.747156024
6.953883648;1.751419902
6.971271992;1.755748868
6.984485626;1.759882569
7.00205946;1.764016271
7.017772675;1.768117428
7.02481842;1.772055864
7.033804417;1.776059389
7.052894115;1.780437231
7.060631275;1.784473181
7.075546265;1.788623214
7.086260796;1.792691827
7.100033283;1.796841741
7.116384029;1.801138282
7.134223938;1.805353284
7.154191017;1.80968225
7.171552658;1.813783407
7.194257736;1.818112493
7.210688591;1.822392583
7.228076458;1.82657516
7.248654842;1.830887914
7.265431404;1.835102916
7.279389858;1.839106441
7.284946442;1.843044877
7.305498123;1.847357512
7.307226181;1.851165771
7.32057333;1.85528326
7.340087891;1.859433174
7.351945877;1.863648295
7.366967678;1.867830753
7.385153294;1.872029543
7.408948421;1.876342297
7.425140381;1.88049233
7.448350906;1.884821296
7.467360497;1.889101386
7.482328892;1.893218875
7.502800941;1.897336245
7.517158031;1.901518822
7.524655819;1.905408382
7.538613796;1.909460783
7.558607578;1.913740873
7.5667696;1.917662978
7.58200407;1.921829224
7.596866131;1.926011801
7.61377573;1.930161834
7.637012959;1.934360623
7.654533863;1.93860817
7.672958374;1.942953467
7.691277027;1.947070956
7.714540958;1.951318502
7.737565041;1.955598712
7.756468773;1.959699869
7.773777008;1.963849783
7.78930378;1.968016028
7.801506996;1.971954465
7.805548668;1.975795269
7.831975937;1.980140567
7.83718729;1.983981252
7.858031273;1.988228917
7.876004219;1.992492795
7.895572186;1.99674046
7.91777277;2.000955582
7.941700935;2.00521946
7.960019588;2.009613514
7.977248192;2.013698339
8.004792213;2.01797843
8.030608177;2.022274971
8.042519569;2.026506424
8.064666748;2.030574799
8.081628799;2.034724951
8.097793579;2.038744688
8.11047554;2.042845726
8.127385139;2.047044516
8.137940407;2.051080704
8.159396172;2.055279493
8.176465034;2.059478283
8.195049286;2.063579321
8.21528244;2.06785965
8.23593998;2.072090864
8.256093025;2.076371193
8.276485443;2.080488443
8.302248955;2.084801197
8.321630478;2.089065075
8.34305954;2.093166351
8.370285034;2.097430229
8.386423111;2.101629019
8.403014183;2.10559988
8.413781166;2.109473228
8.436433792;2.113737106
8.443240166;2.117643118
8.465228081;2.121809244
8.481578827;2.125942945
8.503752708;2.130190611
8.522389412;2.1343894
8.546212196;2.13858819
8.57258606;2.142900944
8.594121933;2.147050858
8.621533394;2.151396275
8.642537117;2.155676365
8.663168907;2.159793854
8.683188438;2.163927555
8.703022957;2.168142557
8.718948364;2.172015905
8.728599548;2.176002979
8.757871628;2.180283308
8.768798828;2.184270382
8.785123825;2.188371658
8.806313515;2.192570448
8.826173782;2.196720362
8.85159111;2.200951815
8.875998497;2.205150604
8.898756981;2.209495783
8.920638084;2.213597059
8.947863579;2.217860937
8.974476814;2.222124815
8.990056992;2.226242304
9.016005516;2.230424643
9.035920143;2.234591007
9.052084923;2.238529444
9.063596725;2.242451429
9.09422493;2.24689436
9.101510048;2.25070262
9.126235962;2.255015373
9.143651009;2.259181499
9.170131683;2.263461828
9.193581581;2.267644405
9.221179008;2.271891832
9.243591309;2.276204586
9.268742561;2.280370951
9.295968056;2.284634829
9.32069397;2.288931131
9.344622612;2.293113708
9.367061615;2.297198534
9.387162209;2.301316023
9.402555466;2.305287123
9.420555115;2.309323072
9.446583748;2.313619614
9.460941315;2.31755805
9.481014252;2.321675301
9.503134727;2.325906754
9.523553848;2.330056667
9.552427292;2.334320545
9.578323364;2.338519335
9.605096817;2.342864752
9.626844406;2.346982002
9.655930519;2.351278543
9.685017586;2.355509758
9.706845284;2.35965991
9.731783867;2.363809824
9.753691673;2.368024826
9.771718025;2.372044563
9.789265633;2.375934362
9.813459396;2.380181789
9.827045441;2.384120226
9.853074074;2.388416767
9.873945236;2.392534256
9.898351669;2.396733046
9.925710678;2.400980473
9.95141983;2.405228138
9.981143951;2.409508467
10.00456715;2.413642168
10.04014111;2.417954683
10.06606388;2.422251225
10.08680153;2.42633605
10.10934734;2.430421114
10.13814068;2.434636116
10.15233898;2.438509464
10.16871643;2.442447901
10.19724464;2.446744204
10.21566868;2.450780392
10.24068737;2.454914093
10.2655468;2.459064007
10.29242611;2.463295221
10.31981087;2.467559099
10.34916306;2.471790552
10.38058853;2.476119518
10.40329456;2.480269432
10.43293858;2.48453331
10.46173286;2.488797426
10.4883194;2.492898464
10.51315212;2.497015953
10.54000473;2.501214743
10.55311298;2.505120516
10.57419586;2.509091616
10.60431957;2.513290405
10.61678886;2.517196178
10.64672565;2.521427631
10.67118549;2.525675058
10.70215988;2.529906511
10.73206997;2.534154177
10.75690269;2.538320303
10.78705215;2.542633057
10.81603241;2.546831846
10.84618187;2.551111937
10.87784767;2.555327177
10.899436;2.559428215
10.92506599;2.56359458
10.95072269;2.567777157
10.96728611;2.571536541
10.9885025;2.575572491
11.02482128;2.580113173
11.04181004;2.584067822
11.06914139;2.588299036
11.10022163;2.592514277
11.1255064;2.596713066
11.15320969;2.600944281
11.18317413;2.605175734
11.21497154;2.609520912
11.24137306;2.613670826
11.27168179;2.617934704
11.30425167;2.622231245
11.33235359;2.626364946
11.36154652;2.630563736
11.38829327;2.634681225
11.40786171;2.638733387
11.42851925;2.642655611
11.45300579;2.646854401
11.47201633;2.650711536
11.5021925;2.654975414
11.52609444;2.659125328
11.55773258;2.663324118
11.58894634;2.667571783
11.6174469;2.671786785
11.64985657;2.676099539
11.67764091;2.680184364
11.71648407;2.684497118
11.74804306;2.688793659
11.77019024;2.692878485
11.79345417;2.696849346
11.82551765;2.701113224
11.84553814;2.705003023
11.86600971;2.709055185
11.89717007;2.713253975
11.92093945;2.717371464
11.95013142;2.721554041
11.97477818;2.725703955
12.00742722;2.729870319
12.03850746;2.734134197
12.07301712;2.738349199
12.10816574;2.742694378
12.13791656;2.746811867
12.1689167;2.75104332
12.20284176;2.75532341
12.2289238;2.759326935
12.2562294;2.763362885
12.28632545;2.767496586
12.30584049;2.771500111
12.32474422;2.775389671
12.36340141;2.779751301
12.38506985;2.783803701
12.41636276;2.788083792
12.44425297;2.792201281
12.47772598;2.796497583
12.51313972;2.800777912
12.54552364;2.805025578
12.5778532;2.809305668
12.60810947;2.813439369
12.64323044;2.817752123
12.6772356;2.822016001
12.70759773;2.826165915
12.7329092;2.830218315
12.76460075;2.83444953
12.78568459;2.83833909
12.81471729;2.842472792
12.847579;2.846785545
12.87451172;2.85078907
12.89862633;2.854873896
12.93247223;2.859105349
12.96193027;2.863320351
12.99681282;2.867551804
13.03180122;2.871750593
13.06782627;2.876128435
13.09534454;2.880262136
13.13245964;2.884509802
13.16819286;2.888708591
13.20049667;2.892825842
13.23282623;2.896992207
13.26334858;2.901174784
13.28573418;2.905080557
13.30708408;2.90898633
13.34268379;2.913282871
13.36028481;2.917172432
13.39854336;2.92143631
13.42922497;2.925570011
13.46174145;2.929833889
13.49641037;2.934065342
13.53328705;2.93832922
13.57292843;2.942674398
13.60254669;2.946791887
13.63897038;2.95102334
13.67494297;2.955368519
13.7075119;2.959518433
13.7325573;2.963489532
13.76456833;2.967655659
13.7882309;2.971545219
13.81689167;2.975646496
13.84996605;2.979845285
13.87766933;2.983881235
13.90859032;2.988080025
13.94341946;2.992262602
13.9755373;2.996380091
14.01539135;3.000660181
14.05221367;3.004907846
14.09158993;3.009285688
14.12205791;3.013354301
14.16441154;3.017601967
14.1989212;3.021947145
14.22944355;3.026064634
14.25845051;3.030068159
14.29612446;3.034315586
14.32350922;3.038384199
14.34395409;3.042257547
14.37952805;3.046456337
14.40635395;3.050410986
14.44134235;3.054691315
14.47505474;3.058873653
14.51017666;3.06313777
14.54843521;3.067352772
14.58472729;3.071583986
14.62497997;3.075913191
14.6591177;3.080046892
14.69519615;3.084245682
14.73550224;3.088493109
14.76522636;3.092561722
14.79221249;3.096516371
14.82629776;3.100764036
14.85163498;3.104621172
14.87923241;3.10872221
14.92278194;3.113100052
14.95434093;3.117298841
14.98722935;3.121448994
15.01817608;3.125550032
15.0561161;3.129765034
15.09067917;3.134061575
15.13239479;3.138276577
15.17254066;3.142621994
15.20348835;3.146739244
15.24799538;3.151035786
15.28319645;3.155250788
15.31480885;3.159303188
15.35125923;3.163453102
15.38513184;3.167700768
15.41397858;3.171655416
15.43886375;3.175577641
15.48113728;3.179971695
15.50482655;3.183910131
15.5409584;3.188076258
15.57687759;3.192275047
15.6134882;3.196538925
15.65025806;3.200737953
15.69128227;3.204936743
15.73437977;3.209249258
15.77205372;3.213382959
15.80983353;3.217614412
15.84795952;3.221845865
15.88371944;3.225963116
15.91535759;3.229950428
15.94840622;3.234116554
15.96863842;3.237908602
16.00522232;3.24200964
16.04499626;3.246273756
16.07339096;3.250325918
16.11430931;3.254606247
16.15246201;3.258821249
16.19101334;3.263020039
16.23142624;3.267251253
16.27462959;3.271531582
16.31578636;3.275941849
16.34848785;3.280026674
16.38959122;3.284209251
16.42963219;3.288473129
16.46371651;3.292541742
16.49835968;3.296545267
16.5313015;3.300630093
16.56091881;3.304617405
16.58412933;3.308572054
16.62946129;3.312852383
16.65679169;3.31670928
16.69994354;3.321054697
16.73897362;3.325302124
16.78268242;3.329614878
16.82423782;3.33382988
16.86401176;3.338110209
16.90546227;3.342520475
16.94031715;3.346556664
16.98187256;3.350755453
