C_1_Force[kN];C_1_Deplacement[mm]
0.807344079;0.002229595
0.925417423;0.00611918
1.05130744;0.010350527
1.16140461;0.014386582
1.268337965;0.01858538
1.365673304;0.022751631
1.457079768;0.026934156
1.551464081;0.031165503
1.635878086;0.035413124
1.722844481;0.03974212
1.787185311;0.043843273
1.846022606;0.048058346
1.887205958;0.052273419
1.928575516;0.056260649
1.959948301;0.060296703
1.991108418;0.064462952
2.018652678;0.068401359
2.041570663;0.072323494
2.076027632;0.076668762
2.097483397;0.080623448
2.125001192;0.084871069
2.155868769;0.089167513
2.184476376;0.093496509
2.212924719;0.097679034
2.242781878;0.101910383
2.27144289;0.106337018
2.292393446;0.110438175
2.322463512;0.114604421
2.348386049;0.118803225
2.37149024;0.12309967
2.393371344;0.126972973
2.414720774;0.131220594
2.434022903;0.13519156
2.456170082;0.139325261
2.480257988;0.143540338
2.502564669;0.147608936
2.527396917;0.151905388
2.551777363;0.156136721
2.572701454;0.160302982
2.599979639;0.164566875
2.625822306;0.168814495
2.650947094;0.173143491
2.672881603;0.177277192
2.700133324;0.181541085
2.728076458;0.185788706
2.748654842;0.189841047
2.772051573;0.193942189
2.795607567;0.198124722
2.811639786;0.202063128
2.827007055;0.205952704
2.85553503;0.210216612
2.871567011;0.214203835
2.896372795;0.218467727
2.916844845;0.222617716
2.941358089;0.22689788
2.965445995;0.231145501
2.989932775;0.235360578
3.016812325;0.239673302
3.038028955;0.243790716
3.066636562;0.248005792
3.087268114;0.252237141
3.108830214;0.25627321
3.127494574;0.260195345
3.148897171;0.264475495
3.163626432;0.268348813
3.183805943;0.272433698
3.208851099;0.276746422
3.228977442;0.280831277
3.250459909;0.285062641
3.273670435;0.289261431
3.294248819;0.29346022
3.321713209;0.2977404
3.34627986;0.301939189
3.370261431;0.306268185
3.393285751;0.310336798
3.417958498;0.314535588
3.437420368;0.318750679
3.461960316;0.322802991
3.480012894;0.326790243
3.503968;0.331021577
3.519468069;0.334959984
3.535260916;0.338914663
3.563948393;0.343357593
3.576843023;0.347328544
3.608933687;0.351673812
3.629804611;0.355856329
3.653972387;0.360201597
3.677368879;0.364416689
3.701961994;0.368664294
3.729240417;0.37299329
3.75045681;0.377143264
3.77712369;0.381342083
3.799616575;0.385589689
3.819822788;0.389658302
3.841092348;0.393629253
3.860474348;0.397779226
3.87703824;0.401668817
3.895835161;0.40573743
3.922555208;0.41001758
3.938348055;0.414118737
3.96365881;0.418301255
3.986098528;0.422516346
4.00941515;0.42674768
4.036932945;0.431027859
4.056554317;0.435226649
4.087634563;0.439620733
4.109462738;0.443770736
4.135810375;0.447985798
4.158755302;0.45220086
4.179227352;0.456318289
4.201108456;0.460321814
4.223361969;0.464520603
4.24019146;0.468475282
4.254867554;0.472446233
4.281055927;0.476710141
4.297274113;0.48074618
4.320245266;0.485010087
4.34481144;0.489176333
4.368181705;0.493472785
4.392269611;0.497736692
4.418324947;0.501984298
4.44544363;0.50628072
4.465783119;0.510381877
4.492316723;0.514629543
4.516032696;0.518860877
4.533260822;0.522896945
4.549665451;0.526770234
4.571785927;0.531001568
4.588004112;0.53490746
4.60874176;0.538976073
4.634159088;0.543272495
4.65181303;0.547389925
4.676591873;0.551621258
4.699324131;0.555771232
4.724608421;0.56003511
4.749334335;0.564299047
4.77509737;0.568530381
4.803359509;0.572859347
4.826224327;0.576976776
4.849647522;0.581159353
4.872698784;0.585406959
4.891947746;0.589394152
4.913855553;0.593462765
4.936347961;0.597612739
4.951821804;0.601551175
4.970220089;0.605587244
4.993563652;0.609802306
5.012201309;0.613870919
5.041872501;0.618151069
5.064045906;0.622398674
5.089542866;0.626662612
5.114960194;0.63092649
5.139473438;0.635109007
5.164252758;0.639405429
5.188925743;0.643474042
5.215193748;0.64765656
5.240079403;0.651839077
5.256190777;0.655907691
5.272808075;0.659878671
5.300219059;0.664191365
5.311066628;0.667999625
5.332203388;0.672100723
5.362645626;0.676608741
5.38184166;0.680661082
5.405583858;0.684957564
5.431054115;0.689156353
5.454743385;0.693436503
5.481543064;0.697684109
5.50834322;0.701931775
5.53828001;0.706309557
5.559656143;0.71045953
5.583504677;0.714642048
5.608922005;0.718889713
5.630936146;0.722958267
5.650690556;0.726961792
5.674087048;0.731144309
5.689693451;0.73511529
5.711096287;0.739102542
5.734811783;0.743350148
5.755762577;0.747337341
5.782217026;0.751633823
5.806224823;0.75581634
5.827707291;0.76009649
5.856580734;0.764360428
5.886358261;0.76857549
5.91515255;0.772888184
5.935544491;0.776973069
5.963434696;0.781155586
5.988745213;0.78538692
6.00645256;0.789406717
6.027004242;0.793231189
6.053405285;0.797495127
6.068560123;0.801417232
6.089457512;0.805534661
6.114821434;0.809782267
6.140717506;0.813948572
6.165576458;0.818228722
6.189929962;0.822394967
6.215958595;0.826626301
6.245071888;0.830890238
6.274078369;0.835137844
6.303324223;0.839483082
6.32464695;0.843567967
6.348362446;0.847652853
6.378060341;0.851884186
6.392816067;0.855822623
6.416718006;0.859712183
6.439662457;0.863862157
6.458007813;0.867947042
6.478532791;0.871966839
6.510676861;0.876312077
6.532052994;0.880445778
6.558294296;0.88474226
6.583339214;0.888924778
6.611042976;0.893204927
6.641432285;0.897533953
6.667726994;0.901781559
6.699657917;0.906045437
6.722602844;0.910179138
6.746212006;0.914361656
6.776388168;0.918674409
6.798110008;0.922677934
6.817332268;0.926600039
6.8446908;0.930945337
6.860828876;0.934867442
6.888505936;0.939001143
6.915040016;0.943281293
6.937373161;0.947398722
6.965981007;0.951597512
6.98945713;0.955780089
7.019766808;0.960011423
7.050368309;0.964259028
7.08046484;0.96847409
7.107291222;0.972851932
7.134809017;0.976985633
7.162486076;0.981151879
7.190349579;0.985318124
7.215686798;0.989403009
7.236371994;0.993406534
7.265830517;0.997605324
7.283164978;1.001511216
7.304062366;1.005514622
7.333494663;1.009811163
7.354232311;1.013863444
7.384860516;1.018143654
7.411527634;1.022342443
7.440879822;1.026638865
7.471029758;1.030870199
7.501232624;1.035101533
7.536194324;1.039430499
7.56065464;1.0434829
7.588810444;1.047632813
7.614413738;1.051880479
7.639379025;1.055981636
7.657830715;1.059854984
7.687076092;1.064053774
7.707495213;1.067992091
7.730971813;1.072158456
7.763168812;1.076438546
7.790314198;1.080539703
7.818044186;1.084771037
7.848433495;1.088953614
7.877652645;1.093184948
7.909557343;1.097432613
7.940318584;1.101647615
7.971930504;1.106025457
7.998065472;1.110077739
8.025211334;1.114178896
8.058099747;1.118459105
8.081230164;1.12246263
8.101542473;1.126368523
8.131505966;1.130697489
8.151181221;1.134717226
8.174683571;1.138720751
8.206535339;1.142968416
8.232749939;1.147069573
8.264548302;1.15139854
8.289726257;1.155629873
8.321258545;1.159893751
8.353668213;1.164141417
8.384216309;1.168340206
8.419072151;1.172701716
8.44209671;1.176754117
8.4742136;1.180806398
8.501811028;1.185037732
8.525766373;1.189106345
8.547727585;1.192947149
8.573570251;1.197129607
8.597472191;1.201100588
8.624936104;1.205266833
8.66069603;1.209644675
8.687335968;1.213859677
8.717538834;1.218123674
8.748327255;1.222241044
8.77948761;1.226521254
8.812508583;1.230817676
8.846460342;1.235081553
8.876077652;1.239361763
8.907902718;1.243495464
8.936484337;1.247677922
8.965463638;1.2519418
8.993034363;1.255912781
9.017601013;1.259916306
9.049160004;1.264180183
9.069393158;1.268086076
9.094437599;1.272105813
9.130729675;1.276402354
9.154232025;1.280454636
9.186455727;1.284734845
9.218147278;1.288966179
9.250265121;1.293295145
9.28302002;1.297526479
9.314153671;1.301725268
9.350152969;1.306054235
9.378760338;1.310155392
9.406464577;1.314321637
9.439751625;1.318422794
9.4662323;1.322475195
9.488698006;1.326380968
9.517678261;1.330612421
9.543148041;1.33448565
9.571622849;1.338635683
9.606612206;1.342948318
9.633916855;1.347049475
9.669198036;1.351329684
9.705037117;1.355528474
9.734921455;1.359776139
9.772647858;1.364007473
9.804871559;1.368255138
9.840099335;1.372649193
9.86711216;1.376717806
9.899920464;1.380786419
9.933632851;1.385033965
9.957561493;1.388988733
9.985078812;1.392959595
10.01405907;1.39712584
10.03796101;1.401145697
10.06255436;1.40513289
10.10163689;1.4094944
10.12745285;1.413481712
10.16669559;1.417810678
10.20016861;1.422074556
10.23313713;1.426419854
10.26908302;1.4305861
10.30295467;1.434768677
10.33839512;1.439178944
10.36918259;1.443182468
10.39869499;1.447218537
10.43400192;1.451449871
10.46678448;1.455778837
10.48566151;1.459554553
10.52189922;1.463867307
10.54885864;1.467887044
10.58031082;1.472102165
10.61838436;1.476300955
10.64749718;1.4804672
10.68519688;1.484796166
10.71835136;1.488994956
10.75384521;1.493177533
10.79228973;1.497457623
10.82382202;1.501737833
10.8612566;1.506034255
10.89486313;1.5101192
10.93017101;1.514236569
10.9638834;1.518451691
10.99089622;1.522455215
11.019557;1.526426077
11.05294991;1.530722618
11.08046722;1.534709811
11.10577869;1.538680792
11.14645672;1.54302597
11.17588902;1.547110915
11.21507835;1.551374793
11.24884415;1.555541039
11.28590584;1.559837461
11.3242178;1.564101338
11.36064243;1.568283916
11.39794445;1.572547793
11.4318428;1.576616406
11.46340179;1.580750108
11.49570465;1.584883809
11.52617359;1.588903546
11.55337238;1.592841983
11.58931828;1.597122192
11.61699581;1.601060629
11.65357876;1.605226874
11.68933868;1.60955584
11.72049904;1.613738298
11.75814629;1.617969751
11.79566097;1.622168541
11.83243084;1.626448631
11.87204552;1.630663753
11.90626335;1.634862542
11.94779205;1.639175296
11.97794151;1.643178821
12.0116539;1.647231102
12.04281425;1.651348472
12.07416058;1.655400872
12.10194397;1.659371853
12.14113331;1.663603187
12.16748142;1.667557836
12.19749832;1.671675205
12.24748135;1.676085591
12.2742281;1.68012166
12.31642246;1.684515834
12.34997463;1.68876338
12.39163685;1.693141222
12.42787552;1.697323799
12.46384716;1.701555133
12.50691891;1.705900311
12.53823853;1.710001469
12.5712595;1.714053869
12.61244297;1.718268871
12.64219379;1.722337484
12.66883373;1.726243377
12.702281;1.730393291
12.7322979;1.734348059
12.76917362;1.738514304
12.80838966;1.742810726
12.84173012;1.746944427
12.88171673;1.751208305
12.92045403;1.755423427
12.9551239;1.759670973
12.99965763;1.76393497
13.03741074;1.768133759
13.08133316;1.772544026
13.11166859;1.776612639
13.14660454;1.780713797
13.18364048;1.784912586
13.21870804;1.788981199
13.24718285;1.792887092
13.28387356;1.797183514
13.31503391;1.801235914
13.34611416;1.805223107
13.38665962;1.809454441
13.42002583;1.81357193
13.46243286;1.81793344
13.49672985;1.822067142
13.53538704;1.826347351
13.58143616;1.830627441
13.6179142;1.834842563
13.65888405;1.839106441
13.68953896;1.843093634
13.72904778;1.847276211
13.76693439;1.851523757
13.79660606;1.855543613
13.8276062;1.859433174
13.86950779;1.863794684
13.89524364;1.867716908
13.93166828;1.87185061
13.97442055;1.8761307
14.01382256;1.880296946
14.05301189;1.884544611
14.08943558;1.888710856
14.13120461;1.892958522
14.1764555;1.897206068
14.21256065;1.901388645
14.25494099;1.905652523
14.28865337;1.90975368
14.32598114;1.913789749
14.3621397;1.917972207
14.3965168;1.921878099
14.43209076;1.926028132
14.46854115;1.93029201
14.49858475;1.934279203
14.53381252;1.938380361
14.57789421;1.942709327
14.60990524;1.94677794
14.65723038;1.951074362
14.69554234;1.955305696
14.7382412;1.959650993
14.78051472;1.963866115
14.81536961;1.967999816
14.85961056;1.972247362
14.88933563;1.976218343
14.9310503;1.980335832
14.96213055;1.984355569
14.99999046;1.988473058
15.03152275;1.992476463
15.07321167;1.996838093
15.10285664;2.000711441
15.14364052;2.004942656
15.18939686;2.009450674
15.22571564;2.013568163
15.26766968;2.017864704
15.3099966;2.022079706
15.35261536;2.026424885
15.39217758;2.030607462
15.43668365;2.034838915
15.47855854;2.039200306
15.51461029;2.043334007
15.55087566;2.047337532
15.58921432;2.051503897
15.62478733;2.055507421
15.65733051;2.05946207
15.69436646;2.063595772
15.7303648;2.067680597
15.76577854;2.07174921
15.81017971;2.076094389
15.84460926;2.080163002
15.89297199;2.084524632
15.93341064;2.088739634
15.97536469;2.093036175
16.01434135;2.09728384
16.06049728;2.101498842
16.10197258;2.10576272
16.13448906;2.109750032
16.17022133;2.113802195
16.21310616;2.118000984
16.2484684;2.122069597
16.27981377;2.125910521
16.32307053;2.130223036
16.35670471;2.134194136
16.39530754;2.138344049
16.4396286;2.142575502
16.48131752;2.146823168
16.52515984;2.151119471
16.56490707;2.155302048
16.6110096;2.15951705
16.6558094;2.163813591
16.69906616;2.168044806
16.74014282;2.172325134
16.77385521;2.176361084
16.8130722;2.180429697
16.85678101;2.184628487
16.88647842;2.188501835
16.91955185;2.192424059
16.961586;2.196639061
16.9954052;2.200691462
17.03286743;2.204760075
17.08441925;2.209137678
17.11946106;2.21328783
17.16888618;2.217633009
17.20820808;2.221782923
17.25510788;2.22612834
17.29730225;2.230392218
17.34101105;2.23460722
17.38349724;2.238740921
17.41864586;2.242842197
17.46224785;2.247073412
17.50061417;2.251321077
17.53440666;2.255291939
17.57032585;2.259328127
17.61515045;2.263705969
17.64636421;2.267627954
17.68629837;2.271761656
17.73450089;2.276107073
17.77060509;2.280289412
17.81641579;2.284471989
17.8591938;2.288703442
17.90383339;2.292967319
17.94892502;2.297198534
17.98970985;2.301348686
18.03652954;2.305693865
18.07473564;2.309811354
18.1158123;2.313814878
18.14971161;2.317899704
18.1911602;2.321984529
18.22793007;2.326053143
18.26741219;2.330268145
18.30184174;2.334239244
18.34212112;2.338372946
18.38697433;2.342718124
18.42459488;2.346754313
18.47295761;2.351067066
18.51554871;2.355233192
18.56449699;2.359578371
18.60302162;2.363760948
18.64699554;2.367910862
18.68929672;2.372191191
18.72965431;2.376178265
18.76435089;2.380181789
18.80564117;2.384380579
18.84754181;2.388546944
18.88000488;2.39248538
18.92291641;2.396716595
18.95998001;2.400752783
19.00488472;2.405032873
19.04782295;2.409296751
19.09009552;2.413446665
19.13529396;2.417743206
19.17578697;2.421941996
19.22098541;2.426156998
19.2722187;2.430339575
19.312603;2.434554815
19.35982323;2.438867331
19.39552879;2.442870855
19.4283905;2.446760416
19.47398758;2.451024294
19.50966835;2.455027819
19.5440712;2.458982706
19.59184837;2.463262796
19.633564;2.46741271
19.66780663;2.471497536
19.71680832;2.475794077
19.75586319;2.479943991
19.80555534;2.484338045
19.84673882;2.488536835
19.89302635;2.492833376
19.9394207;2.497097254
19.9787693;2.501296043
20.02771759;2.505576134
20.06118965;2.509482145
20.10064507;2.513550758
20.14097786;2.517716885
20.18040657;2.521785498
20.21050262;2.52560997
20.25580788;2.529890299
20.29353523;2.533877373
20.33860016;2.538108826
20.38940811;2.542470455
20.43311691;2.546717882
20.47903252;2.550998211
20.52205086;2.555164337
20.56913567;2.559460878
20.6131382;2.563740969
20.65809631;2.567972422
20.70510292;2.572219849
20.74399948;2.576370001
20.78435898;2.580454826
20.82381439;2.584637403
20.85853767;2.588461876
20.89714241;2.592546701
20.94239235;2.596794367
20.97730064;2.600830317
21.01553345;2.60489893
21.0663414;2.609244347
21.10242081;2.613329172
21.1536541;2.617625475
21.19316292;2.621808052
21.24447441;2.626137018
21.28956795;2.630352259
21.33152199;2.63448596
21.38012314;2.638749838
21.42048264;2.642834663
21.45746422;2.646903276
21.49487305;2.650955677
21.54124069;2.655203104
21.57601547;2.659157991
21.61900711;2.663421869
21.65287971;2.667278767
21.69656181;2.671526432
21.74638557;2.675822973
21.78866005;2.679972887
21.83654404;2.684236765
21.88142204;2.688419342
21.92643356;2.692699432
21.97227097;2.696833134
22.01845169;2.700999498
22.06747818;2.705328465
22.10331726;2.709429502
22.13801384;2.713367939
22.18472862;2.717631817
22.22237587;2.721619129
22.25994301;2.725687742
22.30226898;2.729821444
22.34424973;2.73398757
22.38136673;2.738056183
22.43007278;2.7424016
22.46849251;2.746388674
22.52397919;2.750766516
22.56702423;2.754997969
22.61493301;2.759326935
22.65563774;2.763427973
22.69841766;2.767578125
22.74898529;2.771955967
22.77847099;2.775812864
22.8134861;2.77967
22.85698318;2.783917427
22.90834808;2.788327932
22.94038582;2.792103529
22.98872185;2.796497583
23.02953339;2.800615072
23.07688522;2.804911613
23.1181469;2.809110403
23.17089653;2.813406706
23.21388817;2.817768335
23.25711823;2.821967125
23.29761124;2.826117039
23.35086441;2.830397367
23.39223289;2.834644794
23.44189835;2.838876247
23.47829628;2.84286356
23.51958656;2.846915722
23.564785;2.851130962
23.59413528;2.855004072
23.63175774;2.858991385
23.68224525;2.863320351
23.72106361;2.867421627
23.76237869;2.871457577
23.81286812;2.875868082
23.85314751;2.880034208
23.90073776;2.884314299
23.94354439;2.888431787
23.99570847;2.892809629
24.0408535;2.897057295
24.08230209;2.901190996
24.1271019;2.90534091
24.16708755;2.90931201
24.20787239;2.913413048
24.24775314;2.917465448
24.28731537;2.921550274
24.32711601;2.925570011
24.37351036;2.929898977
24.40693092;2.933821201
24.45329857;2.938052416
24.50687027;2.94238162
24.55105972;2.94658041
24.59609795;2.950827837
24.64493752;2.955026627
24.69186401;2.95933938
24.73490906;2.963554621
24.77867126;2.967655659
24.82974434;2.9719522
24.86930656;2.976085901
24.90272713;2.980056763
24.94329834;2.984092951
24.98283386;2.988112688
25.02436256;2.99216485
25.06530571;2.996380091
25.10401726;3.000350952
25.14647675;3.004517317
25.20398521;3.008960247
25.24022293;3.012979984
25.29355621;3.017325163
25.33694649;3.021556616
25.38972282;3.025966883
25.43295288;3.030100584
25.47557259;3.034266949
25.52412033;3.038677216
25.56572914;3.042713165
25.60467911;3.046651602
25.64634132;3.050850391
25.69382477;3.055114269
25.72102356;3.058971405
25.76800346;3.063153982
25.80820274;3.067189932
25.8558197;3.071405172
25.90460777;3.075685263
25.94743919;3.07986784
25.99612045;3.084180593
26.04477501;3.088395596
26.09085083;3.092610598
26.13610077;3.096776962
26.18510246;3.100991964
26.23200035;3.10532093
26.26629829;3.109340668
26.30604553;3.113246679
26.35164261;3.117559195
26.38942337;3.121611595
26.4224453;3.125550032
26.47498131;3.129878998
26.51879692;3.134061575
26.55155182;3.138130188
26.59985924;3.142361403
26.64604187;3.146511555
26.69578552;3.150872946
26.73630524;3.155006647
26.78849602;3.159270525
26.83324242;3.163501978
26.87251091;3.167651892
26.91749573;3.171818256
26.95336151;3.175610065
26.99672508;3.179792643
27.03939819;3.184040308
27.08010292;3.188157797
27.11854744;3.192096233
27.16964722;3.196571589
27.20205688;3.200558901
27.24635124;3.204692602
27.29960632;3.209037781
27.3430233;3.213301659
27.39066696;3.217516661
27.43254089;3.22163415
27.47938728;3.22591424
27.52836037;3.230096817
27.57209778;3.234214306
27.61200333;3.238331795
27.65552711;3.242497921
27.69375992;3.246469021
27.7351017;3.25065136
27.76405525;3.25445962
27.81111526;3.25867486
27.85724258;3.262938738
27.89866638;3.267039776
27.94046021;3.271173477
27.9916935;3.275567532
28.03380775;3.279701233
28.07751656;3.283981562
28.12856483;3.288228989
28.17825508;3.292590618
28.22058296;3.296822071
28.26049042;3.300874233
28.30813408;3.305073023
28.33650208;3.308946371
28.38324165;3.31306386
28.41777992;3.317018509
28.46398735;3.321266174
28.49815178;3.325253487
28.55066109;3.329598665
28.58216667;3.333504438
28.62986374;3.337784767
28.68795776;3.342195034
28.72927284;3.346393824
28.77582741;3.350690365
28.8227005;3.354970455
